SpectraSuite Data File
++++++++++++++++++++++++++++++++++++
Date: Thu Sep 05 10:53:18 EST 2013
User: root
Dark Spectrum Present: No
Reference Spectrum Present: No
Number of Sampled Component Spectra: 1
Spectrometers: USB2G39202
Integration Time (usec): 400000 (USB2G39202)
Spectra Averaged: 1 (USB2G39202)
Boxcar Smoothing: 0 (USB2G39202)
Correct for Electrical Dark: No (USB2G39202)
Strobe/Lamp Enabled: No (USB2G39202)
Correct for Detector Non-linearity: No (USB2G39202)
Correct for Stray Light: No (USB2G39202)
Number of Pixels in Processed Spectrum: 2048
>>>>>Begin Processed Spectral Data<<<<<
174.98	0.00
175.37	100.00
175.76	101.00
176.16	102.00
176.55	102.00
176.94	108.00
177.33	107.00
177.72	107.00
178.11	107.00
178.50	105.00
178.89	104.00
179.28	107.00
179.67	107.00
180.07	105.00
180.46	107.00
180.85	106.00
181.24	108.00
181.63	111.00
182.02	109.00
182.41	107.00
182.80	107.00
183.19	107.00
183.58	104.00
183.97	105.00
184.36	106.00
184.75	106.00
185.14	108.00
185.53	109.00
185.92	106.00
186.31	106.00
186.70	107.00
187.09	107.00
187.48	108.00
187.87	116.00
188.26	109.00
188.65	106.00
189.04	107.00
189.43	109.00
189.82	106.00
190.21	109.00
190.60	107.00
190.99	106.00
191.38	107.00
191.77	105.00
192.16	107.00
192.55	110.00
192.94	110.00
193.33	110.00
193.72	108.00
194.11	107.00
194.50	108.00
194.89	107.00
195.27	108.00
195.66	107.00
196.05	107.00
196.44	108.00
196.83	105.00
197.22	104.00
197.61	104.00
198.00	106.00
198.39	107.00
198.78	109.00
199.16	107.00
199.55	107.00
199.94	107.00
200.33	108.00
200.72	109.00
201.11	106.00
201.50	106.00
201.88	108.00
202.27	106.00
202.66	105.00
203.05	106.00
203.44	108.00
203.83	106.00
204.21	108.00
204.60	107.00
204.99	107.00
205.38	112.00
205.77	108.00
206.15	108.00
206.54	109.00
206.93	108.00
207.32	109.00
207.71	108.00
208.09	108.00
208.48	109.00
208.87	109.00
209.26	110.00
209.64	108.00
210.03	108.00
210.42	111.00
210.81	109.00
211.19	108.00
211.58	110.00
211.97	109.00
212.36	108.00
212.74	110.00
213.13	109.00
213.52	108.00
213.90	108.00
214.29	109.00
214.68	109.00
215.06	108.00
215.45	106.00
215.84	111.00
216.23	110.00
216.61	109.00
217.00	109.00
217.39	109.00
217.77	111.00
218.16	110.00
218.55	108.00
218.93	107.00
219.32	106.00
219.70	107.00
220.09	107.00
220.48	107.00
220.86	108.00
221.25	105.00
221.64	111.00
222.02	108.00
222.41	107.00
222.79	110.00
223.18	107.00
223.57	106.00
223.95	108.00
224.34	108.00
224.72	108.00
225.11	110.00
225.50	108.00
225.88	113.00
226.27	109.00
226.65	107.00
227.04	110.00
227.42	108.00
227.81	109.00
228.20	108.00
228.58	111.00
228.97	113.00
229.35	110.00
229.74	110.00
230.12	110.00
230.51	109.00
230.89	108.00
231.28	107.00
231.66	109.00
232.05	109.00
232.43	107.00
232.82	106.00
233.20	107.00
233.59	109.00
233.97	110.00
234.36	107.00
234.74	107.00
235.13	106.00
235.51	109.00
235.90	108.00
236.28	108.00
236.67	109.00
237.05	108.00
237.43	109.00
237.82	111.00
238.20	110.00
238.59	109.00
238.97	111.00
239.36	110.00
239.74	111.00
240.12	110.00
240.51	110.00
240.89	110.00
241.28	109.00
241.66	110.00
242.04	111.00
242.43	110.00
242.81	110.00
243.20	108.00
243.58	106.00
243.96	109.00
244.35	109.00
244.73	108.00
245.11	109.00
245.50	106.00
245.88	106.00
246.27	107.00
246.65	109.00
247.03	109.00
247.42	110.00
247.80	108.00
248.18	105.00
248.56	109.00
248.95	108.00
249.33	113.00
249.71	112.00
250.10	112.00
250.48	107.00
250.86	109.00
251.25	108.00
251.63	108.00
252.01	110.00
252.39	109.00
252.78	108.00
253.16	109.00
253.54	111.00
253.93	113.00
254.31	110.00
254.69	110.00
255.07	109.00
255.46	113.00
255.84	111.00
256.22	110.00
256.60	109.00
256.98	113.00
257.37	111.00
257.75	109.00
258.13	109.00
258.51	109.00
258.89	108.00
259.28	109.00
259.66	109.00
260.04	112.00
260.42	109.00
260.80	110.00
261.19	112.00
261.57	110.00
261.95	110.00
262.33	109.00
262.71	127.00
263.09	112.00
263.48	110.00
263.86	110.00
264.24	108.00
264.62	108.00
265.00	110.00
265.38	109.00
265.76	110.00
266.15	112.00
266.53	110.00
266.91	114.00
267.29	112.00
267.67	113.00
268.05	108.00
268.43	110.00
268.81	123.00
269.19	115.00
269.57	107.00
269.96	107.00
270.34	106.00
270.72	107.00
271.10	108.00
271.48	107.00
271.86	109.00
272.24	106.00
272.62	106.00
273.00	108.00
273.38	111.00
273.76	111.00
274.14	111.00
274.52	112.00
274.90	108.00
275.28	111.00
275.66	112.00
276.04	110.00
276.42	109.00
276.80	109.00
277.18	108.00
277.56	115.00
277.94	112.00
278.32	122.00
278.70	114.00
279.08	109.00
279.46	109.00
279.84	109.00
280.22	109.00
280.60	112.00
280.98	111.00
281.36	112.00
281.74	108.00
282.12	106.00
282.50	109.00
282.88	109.00
283.26	108.00
283.63	109.00
284.01	110.00
284.39	109.00
284.77	107.00
285.15	108.00
285.53	111.00
285.91	110.00
286.29	111.00
286.67	109.00
287.05	110.00
287.42	110.00
287.80	108.00
288.18	109.00
288.56	110.00
288.94	109.00
289.32	110.00
289.70	112.00
290.07	110.00
290.45	111.00
290.83	111.00
291.21	109.00
291.59	107.00
291.97	110.00
292.34	114.00
292.72	115.00
293.10	113.00
293.48	109.00
293.86	107.00
294.24	109.00
294.61	123.00
294.99	121.00
295.37	115.00
295.75	108.00
296.12	105.00
296.50	107.00
296.88	110.00
297.26	111.00
297.64	112.00
298.01	110.00
298.39	109.00
298.77	110.00
299.15	109.00
299.52	109.00
299.90	110.00
300.28	112.00
300.65	110.00
301.03	110.00
301.41	110.00
301.79	111.00
302.16	109.00
302.54	109.00
302.92	108.00
303.29	110.00
303.67	112.00
304.05	110.00
304.42	111.00
304.80	109.00
305.18	111.00
305.56	109.00
305.93	110.00
306.31	110.00
306.69	109.00
307.06	114.00
307.44	123.00
307.81	117.00
308.19	110.00
308.57	109.00
308.94	109.00
309.32	109.00
309.70	110.00
310.07	107.00
310.45	108.00
310.82	108.00
311.20	110.00
311.58	110.00
311.95	110.00
312.33	110.00
312.70	110.00
313.08	108.00
313.46	106.00
313.83	105.00
314.21	108.00
314.58	113.00
314.96	111.00
315.33	110.00
315.71	107.00
316.09	108.00
316.46	107.00
316.84	104.00
317.21	108.00
317.59	109.00
317.96	110.00
318.34	106.00
318.71	107.00
319.09	109.00
319.46	108.00
319.84	112.00
320.21	108.00
320.59	108.00
320.96	109.00
321.34	109.00
321.71	107.00
322.09	109.00
322.46	108.00
322.84	113.00
323.21	111.00
323.59	109.00
323.96	110.00
324.34	111.00
324.71	110.00
325.08	111.00
325.46	108.00
325.83	110.00
326.21	110.00
326.58	109.00
326.96	113.00
327.33	109.00
327.70	108.00
328.08	107.00
328.45	108.00
328.83	107.00
329.20	117.00
329.57	112.00
329.95	109.00
330.32	109.00
330.70	109.00
331.07	109.00
331.44	109.00
331.82	109.00
332.19	107.00
332.56	115.00
332.94	111.00
333.31	113.00
333.69	111.00
334.06	110.00
334.43	110.00
334.81	111.00
335.18	116.00
335.55	109.00
335.92	108.00
336.30	108.00
336.67	110.00
337.04	110.00
337.42	110.00
337.79	117.00
338.16	112.00
338.54	108.00
338.91	111.00
339.28	110.00
339.65	108.00
340.03	107.00
340.40	110.00
340.77	112.00
341.15	110.00
341.52	109.00
341.89	106.00
342.26	108.00
342.64	108.00
343.01	112.00
343.38	110.00
343.75	110.00
344.12	108.00
344.50	105.00
344.87	106.00
345.24	109.00
345.61	108.00
345.98	110.00
346.36	109.00
346.73	109.00
347.10	107.00
347.47	110.00
347.84	112.00
348.22	110.00
348.59	107.00
348.96	107.00
349.33	108.00
349.70	104.00
350.07	108.00
350.45	110.00
350.82	110.00
351.19	111.00
351.56	112.00
351.93	109.00
352.30	112.00
352.67	108.00
353.05	104.00
353.42	105.00
353.79	107.00
354.16	111.00
354.53	113.00
354.90	112.00
355.27	116.00
355.64	111.00
356.01	110.00
356.38	110.00
356.75	110.00
357.13	112.00
357.50	108.00
357.87	112.00
358.24	111.00
358.61	106.00
358.98	104.00
359.35	106.00
359.72	107.00
360.09	114.00
360.46	110.00
360.83	109.00
361.20	108.00
361.57	109.00
361.94	107.00
362.31	107.00
362.68	106.00
363.05	107.00
363.42	107.00
363.79	106.00
364.16	111.00
364.53	110.00
364.90	111.00
365.27	110.00
365.64	109.00
366.01	110.00
366.38	108.00
366.75	109.00
367.12	110.00
367.49	108.00
367.86	107.00
368.23	107.00
368.60	107.00
368.97	109.00
369.34	110.00
369.70	110.00
370.07	108.00
370.44	108.00
370.81	107.00
371.18	123.00
371.55	122.00
371.92	113.00
372.29	106.00
372.66	106.00
373.03	106.00
373.39	106.00
373.76	106.00
374.13	107.00
374.50	108.00
374.87	111.00
375.24	107.00
375.61	109.00
375.98	110.00
376.34	113.00
376.71	110.00
377.08	109.00
377.45	108.00
377.82	110.00
378.19	109.00
378.55	112.00
378.92	111.00
379.29	109.00
379.66	108.00
380.03	107.00
380.39	109.00
380.76	108.00
381.13	110.00
381.50	107.00
381.87	110.00
382.23	109.00
382.60	107.00
382.97	109.00
383.34	108.00
383.70	120.00
384.07	112.00
384.44	109.00
384.81	108.00
385.17	107.00
385.54	109.00
385.91	109.00
386.28	109.00
386.64	110.00
387.01	110.00
387.38	108.00
387.74	107.00
388.11	107.00
388.48	109.00
388.85	106.00
389.21	108.00
389.58	122.00
389.95	111.00
390.31	108.00
390.68	109.00
391.05	107.00
391.41	106.00
391.78	106.00
392.15	109.00
392.51	112.00
392.88	107.00
393.25	110.00
393.61	108.00
393.98	110.00
394.35	108.00
394.71	108.00
395.08	109.00
395.44	108.00
395.81	108.00
396.18	106.00
396.54	106.00
396.91	109.00
397.27	113.00
397.64	110.00
398.01	111.00
398.37	111.00
398.74	109.00
399.10	110.00
399.47	109.00
399.84	109.00
400.20	110.00
400.57	109.00
400.93	110.00
401.30	112.00
401.66	111.00
402.03	112.00
402.39	112.00
402.76	113.00
403.12	111.00
403.49	111.00
403.86	111.00
404.22	111.00
404.59	111.00
404.95	109.00
405.32	109.00
405.68	111.00
406.05	112.00
406.41	110.00
406.78	109.00
407.14	112.00
407.50	110.00
407.87	109.00
408.23	112.00
408.60	114.00
408.96	110.00
409.33	107.00
409.69	108.00
410.06	107.00
410.42	110.00
410.79	108.00
411.15	109.00
411.51	110.00
411.88	109.00
412.24	109.00
412.61	109.00
412.97	108.00
413.34	111.00
413.70	109.00
414.06	108.00
414.43	113.00
414.79	112.00
415.16	111.00
415.52	112.00
415.88	110.00
416.25	108.00
416.61	110.00
416.97	111.00
417.34	109.00
417.70	111.00
418.06	111.00
418.43	106.00
418.79	109.00
419.15	110.00
419.52	110.00
419.88	112.00
420.24	113.00
420.61	113.00
420.97	110.00
421.33	117.00
421.70	114.00
422.06	112.00
422.42	111.00
422.79	111.00
423.15	109.00
423.51	109.00
423.87	109.00
424.24	112.00
424.60	124.00
424.96	117.00
425.33	111.00
425.69	112.00
426.05	113.00
426.41	111.00
426.78	111.00
427.14	112.00
427.50	111.00
427.86	112.00
428.23	111.00
428.59	112.00
428.95	113.00
429.31	116.00
429.67	123.00
430.04	123.00
430.40	121.00
430.76	127.00
431.12	129.00
431.48	129.00
431.85	126.00
432.21	126.00
432.57	126.00
432.93	127.00
433.29	127.00
433.65	130.00
434.02	129.00
434.38	126.00
434.74	129.00
435.10	127.00
435.46	128.00
435.82	237.00
436.18	128.00
436.55	124.00
436.91	125.00
437.27	123.00
437.63	123.00
437.99	119.00
438.35	122.00
438.71	126.00
439.07	117.00
439.43	116.00
439.80	116.00
440.16	116.00
440.52	117.00
440.88	116.00
441.24	110.00
441.60	112.00
441.96	114.00
442.32	116.00
442.68	123.00
443.04	119.00
443.40	117.00
443.76	117.00
444.12	116.00
444.48	122.00
444.84	116.00
445.20	113.00
445.56	116.00
445.92	117.00
446.28	109.00
446.64	114.00
447.00	116.00
447.36	117.00
447.72	114.00
448.08	115.00
448.44	114.00
448.80	114.00
449.16	115.00
449.52	116.00
449.88	120.00
450.24	117.00
450.60	114.00
450.96	117.00
451.32	116.00
451.68	115.00
452.04	116.00
452.40	121.00
452.76	117.00
453.12	118.00
453.48	119.00
453.84	114.00
454.20	115.00
454.56	118.00
454.91	116.00
455.27	117.00
455.63	118.00
455.99	119.00
456.35	119.00
456.71	118.00
457.07	116.00
457.43	117.00
457.79	116.00
458.14	118.00
458.50	115.00
458.86	114.00
459.22	115.00
459.58	115.00
459.94	117.00
460.30	117.00
460.65	117.00
461.01	116.00
461.37	118.00
461.73	118.00
462.09	117.00
462.44	118.00
462.80	116.00
463.16	114.00
463.52	118.00
463.88	126.00
464.24	120.00
464.59	120.00
464.95	117.00
465.31	117.00
465.67	117.00
466.02	122.00
466.38	117.00
466.74	121.00
467.10	121.00
467.45	117.00
467.81	122.00
468.17	120.00
468.53	120.00
468.88	122.00
469.24	122.00
469.60	120.00
469.96	122.00
470.31	124.00
470.67	125.00
471.03	125.00
471.38	124.00
471.74	122.00
472.10	124.00
472.46	127.00
472.81	125.00
473.17	123.00
473.53	123.00
473.88	124.00
474.24	127.00
474.60	132.00
474.95	126.00
475.31	125.00
475.67	127.00
476.02	128.00
476.38	127.00
476.74	128.00
477.09	129.00
477.45	128.00
477.80	146.00
478.16	133.00
478.52	136.00
478.87	134.00
479.23	130.00
479.59	135.00
479.94	137.00
480.30	137.00
480.65	134.00
481.01	139.00
481.37	144.00
481.72	145.00
482.08	149.00
482.43	141.00
482.79	147.00
483.14	157.00
483.50	156.00
483.85	162.00
484.21	167.00
484.57	169.00
484.92	172.00
485.28	188.00
485.63	194.00
485.99	207.00
486.34	222.00
486.70	249.00
487.05	267.00
487.41	295.00
487.76	331.00
488.12	366.00
488.47	418.00
488.83	462.00
489.18	530.00
489.54	600.00
489.89	672.00
490.25	751.00
490.60	840.00
490.96	932.00
491.31	1025.00
491.67	1137.00
492.02	1223.00
492.37	1334.00
492.73	1423.00
493.08	1524.00
493.44	1587.00
493.79	1692.00
494.15	1773.00
494.50	1882.00
494.86	1915.00
495.21	2001.00
495.56	2047.00
495.92	2093.00
496.27	2138.00
496.63	2153.00
496.98	2179.00
497.33	2154.00
497.69	2125.00
498.04	2124.00
498.39	2096.00
498.75	2015.00
499.10	1980.00
499.46	1890.00
499.81	1845.00
500.16	1737.00
500.52	1648.00
500.87	1544.00
501.22	1453.00
501.58	1356.00
501.93	1279.00
502.28	1161.00
502.64	1081.00
502.99	982.00
503.34	916.00
503.70	819.00
504.05	736.00
504.40	675.00
504.75	602.00
505.11	535.00
505.46	487.00
505.81	434.00
506.17	383.00
506.52	340.00
506.87	305.00
507.22	268.00
507.58	249.00
507.93	222.00
508.28	204.00
508.63	190.00
508.99	179.00
509.34	163.00
509.69	159.00
510.04	148.00
510.40	151.00
510.75	141.00
511.10	138.00
511.45	139.00
511.81	135.00
512.16	133.00
512.51	131.00
512.86	134.00
513.21	124.00
513.57	131.00
513.92	125.00
514.27	126.00
514.62	126.00
514.97	129.00
515.32	121.00
515.68	122.00
516.03	123.00
516.38	127.00
516.73	123.00
517.08	123.00
517.43	120.00
517.78	121.00
518.14	122.00
518.49	113.00
518.84	119.00
519.19	123.00
519.54	119.00
519.89	117.00
520.24	121.00
520.59	120.00
520.94	116.00
521.30	119.00
521.65	116.00
522.00	114.00
522.35	116.00
522.70	114.00
523.05	114.00
523.40	117.00
523.75	117.00
524.10	116.00
524.45	116.00
524.80	118.00
525.15	118.00
525.50	117.00
525.85	117.00
526.20	116.00
526.55	116.00
526.90	116.00
527.25	112.00
527.60	113.00
527.95	114.00
528.30	114.00
528.65	116.00
529.00	113.00
529.35	119.00
529.70	118.00
530.05	116.00
530.40	118.00
530.75	121.00
531.10	117.00
531.45	119.00
531.80	117.00
532.15	118.00
532.50	120.00
532.85	123.00
533.20	120.00
533.55	121.00
533.90	123.00
534.25	124.00
534.60	127.00
534.95	130.00
535.30	136.00
535.65	138.00
535.99	146.00
536.34	146.00
536.69	162.00
537.04	157.00
537.39	164.00
537.74	168.00
538.09	168.00
538.44	175.00
538.79	180.00
539.13	197.00
539.48	185.00
539.83	190.00
540.18	210.00
540.53	206.00
540.88	212.00
541.23	225.00
541.57	223.00
541.92	222.00
542.27	240.00
542.62	226.00
542.97	223.00
543.32	225.00
543.66	226.00
544.01	227.00
544.36	217.00
544.71	216.00
545.06	201.00
545.40	204.00
545.75	204.00
546.10	207.00
546.45	208.00
546.79	194.00
547.14	190.00
547.49	185.00
547.84	186.00
548.19	174.00
548.53	171.00
548.88	166.00
549.23	161.00
549.57	153.00
549.92	149.00
550.27	147.00
550.62	143.00
550.96	139.00
551.31	139.00
551.66	132.00
552.01	134.00
552.35	126.00
552.70	129.00
553.05	124.00
553.39	125.00
553.74	125.00
554.09	121.00
554.43	118.00
554.78	118.00
555.13	115.00
555.47	117.00
555.82	117.00
556.17	121.00
556.51	119.00
556.86	117.00
557.21	114.00
557.55	114.00
557.90	112.00
558.25	112.00
558.59	112.00
558.94	113.00
559.28	115.00
559.63	111.00
559.98	107.00
560.32	110.00
560.67	114.00
561.01	113.00
561.36	111.00
561.71	110.00
562.05	110.00
562.40	109.00
562.74	112.00
563.09	109.00
563.43	111.00
563.78	110.00
564.13	108.00
564.47	109.00
564.82	111.00
565.16	136.00
565.51	117.00
565.85	113.00
566.20	111.00
566.54	112.00
566.89	115.00
567.23	115.00
567.58	115.00
567.92	113.00
568.27	110.00
568.61	109.00
568.96	110.00
569.30	112.00
569.65	110.00
569.99	111.00
570.34	110.00
570.68	114.00
571.03	112.00
571.37	112.00
571.72	110.00
572.06	114.00
572.41	116.00
572.75	114.00
573.09	114.00
573.44	115.00
573.78	114.00
574.13	114.00
574.47	114.00
574.82	114.00
575.16	113.00
575.50	114.00
575.85	112.00
576.19	114.00
576.54	117.00
576.88	118.00
577.22	119.00
577.57	120.00
577.91	126.00
578.26	121.00
578.60	122.00
578.94	123.00
579.29	123.00
579.63	121.00
579.97	124.00
580.32	125.00
580.66	121.00
581.00	123.00
581.35	126.00
581.69	126.00
582.03	129.00
582.38	126.00
582.72	128.00
583.06	129.00
583.41	128.00
583.75	128.00
584.09	122.00
584.44	132.00
584.78	127.00
585.12	126.00
585.46	123.00
585.81	124.00
586.15	121.00
586.49	125.00
586.83	123.00
587.18	123.00
587.52	127.00
587.86	123.00
588.20	124.00
588.55	121.00
588.89	125.00
589.23	126.00
589.57	123.00
589.92	120.00
590.26	119.00
590.60	130.00
590.94	124.00
591.29	120.00
591.63	120.00
591.97	120.00
592.31	119.00
592.65	118.00
593.00	125.00
593.34	123.00
593.68	123.00
594.02	118.00
594.36	114.00
594.70	122.00
595.05	121.00
595.39	116.00
595.73	116.00
596.07	118.00
596.41	116.00
596.75	116.00
597.09	117.00
597.44	116.00
597.78	115.00
598.12	113.00
598.46	115.00
598.80	114.00
599.14	115.00
599.48	116.00
599.82	115.00
600.16	112.00
600.51	113.00
600.85	114.00
601.19	113.00
601.53	113.00
601.87	109.00
602.21	112.00
602.55	115.00
602.89	112.00
603.23	112.00
603.57	115.00
603.91	117.00
604.25	118.00
604.59	120.00
604.93	123.00
605.27	127.00
605.61	132.00
605.95	138.00
606.29	147.00
606.63	145.00
606.97	154.00
607.31	152.00
607.65	149.00
607.99	157.00
608.33	165.00
608.67	160.00
609.01	167.00
609.35	166.00
609.69	165.00
610.03	160.00
610.37	163.00
610.71	170.00
611.05	161.00
611.39	165.00
611.73	160.00
612.07	163.00
612.41	164.00
612.75	163.00
613.09	156.00
613.43	154.00
613.77	150.00
614.11	143.00
614.44	146.00
614.78	136.00
615.12	137.00
615.46	146.00
615.80	134.00
616.14	132.00
616.48	130.00
616.82	126.00
617.16	128.00
617.49	127.00
617.83	138.00
618.17	126.00
618.51	125.00
618.85	124.00
619.19	123.00
619.53	125.00
619.86	122.00
620.20	126.00
620.54	124.00
620.88	121.00
621.22	122.00
621.56	124.00
621.89	121.00
622.23	121.00
622.57	122.00
622.91	121.00
623.25	123.00
623.58	123.00
623.92	121.00
624.26	126.00
624.60	122.00
624.94	121.00
625.27	126.00
625.61	124.00
625.95	127.00
626.29	124.00
626.62	124.00
626.96	125.00
627.30	123.00
627.64	125.00
627.97	124.00
628.31	122.00
628.65	119.00
628.98	120.00
629.32	119.00
629.66	118.00
630.00	118.00
630.33	118.00
630.67	119.00
631.01	117.00
631.34	116.00
631.68	144.00
632.02	122.00
632.35	115.00
632.69	115.00
633.03	122.00
633.36	117.00
633.70	115.00
634.04	113.00
634.37	112.00
634.71	110.00
635.05	111.00
635.38	112.00
635.72	112.00
636.06	110.00
636.39	111.00
636.73	114.00
637.06	114.00
637.40	111.00
637.74	109.00
638.07	109.00
638.41	111.00
638.75	109.00
639.08	110.00
639.42	108.00
639.75	108.00
640.09	107.00
640.42	107.00
640.76	109.00
641.10	108.00
641.43	111.00
641.77	107.00
642.10	107.00
642.44	109.00
642.77	111.00
643.11	111.00
643.44	109.00
643.78	111.00
644.11	111.00
644.45	110.00
644.78	112.00
645.12	111.00
645.45	110.00
645.79	114.00
646.12	111.00
646.46	111.00
646.79	110.00
647.13	110.00
647.46	112.00
647.80	112.00
648.13	115.00
648.47	113.00
648.80	112.00
649.14	111.00
649.47	113.00
649.81	115.00
650.14	110.00
650.48	112.00
650.81	113.00
651.14	110.00
651.48	110.00
651.81	116.00
652.15	111.00
652.48	113.00
652.82	115.00
653.15	114.00
653.48	109.00
653.82	108.00
654.15	111.00
654.49	111.00
654.82	112.00
655.15	111.00
655.49	110.00
655.82	107.00
656.15	108.00
656.49	109.00
656.82	111.00
657.15	109.00
657.49	109.00
657.82	110.00
658.16	110.00
658.49	112.00
658.82	109.00
659.16	111.00
659.49	111.00
659.82	111.00
660.15	109.00
660.49	111.00
660.82	108.00
661.15	109.00
661.49	114.00
661.82	115.00
662.15	114.00
662.49	109.00
662.82	110.00
663.15	112.00
663.48	109.00
663.82	108.00
664.15	109.00
664.48	109.00
664.81	107.00
665.15	108.00
665.48	107.00
665.81	109.00
666.14	110.00
666.48	107.00
666.81	108.00
667.14	106.00
667.47	105.00
667.80	110.00
668.14	111.00
668.47	109.00
668.80	110.00
669.13	109.00
669.46	117.00
669.80	114.00
670.13	107.00
670.46	107.00
670.79	108.00
671.12	109.00
671.46	119.00
671.79	113.00
672.12	113.00
672.45	111.00
672.78	108.00
673.11	113.00
673.44	110.00
673.78	108.00
674.11	110.00
674.44	109.00
674.77	106.00
675.10	105.00
675.43	106.00
675.76	106.00
676.09	107.00
676.42	108.00
676.76	107.00
677.09	109.00
677.42	110.00
677.75	112.00
678.08	108.00
678.41	111.00
678.74	109.00
679.07	110.00
679.40	108.00
679.73	107.00
680.06	106.00
680.39	107.00
680.72	107.00
681.05	109.00
681.38	108.00
681.71	108.00
682.05	106.00
682.38	110.00
682.71	108.00
683.04	108.00
683.37	111.00
683.70	110.00
684.03	110.00
684.36	109.00
684.69	113.00
685.02	110.00
685.35	121.00
685.67	113.00
686.00	111.00
686.33	109.00
686.66	109.00
686.99	112.00
687.32	114.00
687.65	117.00
687.98	110.00
688.31	108.00
688.64	107.00
688.97	109.00
689.30	114.00
689.63	113.00
689.96	109.00
690.29	106.00
690.62	108.00
690.95	109.00
691.27	110.00
691.60	107.00
691.93	108.00
692.26	108.00
692.59	108.00
692.92	110.00
693.25	110.00
693.58	109.00
693.90	106.00
694.23	106.00
694.56	118.00
694.89	110.00
695.22	109.00
695.55	108.00
695.88	108.00
696.20	108.00
696.53	107.00
696.86	109.00
697.19	109.00
697.52	108.00
697.85	107.00
698.17	108.00
698.50	112.00
698.83	109.00
699.16	107.00
699.49	108.00
699.81	109.00
700.14	108.00
700.47	107.00
700.80	108.00
701.12	111.00
701.45	112.00
701.78	109.00
702.11	107.00
702.43	110.00
702.76	119.00
703.09	115.00
703.42	110.00
703.74	111.00
704.07	111.00
704.40	110.00
704.73	109.00
705.05	110.00
705.38	109.00
705.71	116.00
706.03	116.00
706.36	113.00
706.69	111.00
707.01	112.00
707.34	111.00
707.67	132.00
708.00	118.00
708.32	114.00
708.65	112.00
708.98	111.00
709.30	117.00
709.63	113.00
709.96	111.00
710.28	109.00
710.61	109.00
710.93	109.00
711.26	110.00
711.59	112.00
711.91	106.00
712.24	113.00
712.57	109.00
712.89	107.00
713.22	106.00
713.54	108.00
713.87	109.00
714.20	109.00
714.52	107.00
714.85	108.00
715.17	108.00
715.50	107.00
715.82	106.00
716.15	115.00
716.48	111.00
716.80	108.00
717.13	108.00
717.45	107.00
717.78	106.00
718.10	110.00
718.43	111.00
718.75	111.00
719.08	108.00
719.40	106.00
719.73	108.00
720.05	109.00
720.38	109.00
720.71	109.00
721.03	107.00
721.35	107.00
721.68	121.00
722.00	112.00
722.33	106.00
722.65	107.00
722.98	108.00
723.30	109.00
723.63	107.00
723.95	106.00
724.28	106.00
724.60	106.00
724.93	108.00
725.25	121.00
725.58	113.00
725.90	108.00
726.22	108.00
726.55	110.00
726.87	107.00
727.20	107.00
727.52	111.00
727.85	111.00
728.17	110.00
728.49	109.00
728.82	106.00
729.14	106.00
729.46	107.00
729.79	106.00
730.11	107.00
730.44	110.00
730.76	111.00
731.08	109.00
731.41	106.00
731.73	110.00
732.05	110.00
732.38	109.00
732.70	107.00
733.02	107.00
733.35	106.00
733.67	110.00
733.99	109.00
734.32	108.00
734.64	106.00
734.96	110.00
735.29	110.00
735.61	121.00
735.93	113.00
736.26	110.00
736.58	107.00
736.90	109.00
737.22	107.00
737.55	108.00
737.87	122.00
738.19	114.00
738.52	108.00
738.84	107.00
739.16	110.00
739.48	107.00
739.81	109.00
740.13	110.00
740.45	109.00
740.77	109.00
741.09	108.00
741.42	112.00
741.74	108.00
742.06	108.00
742.38	107.00
742.71	107.00
743.03	107.00
743.35	107.00
743.67	109.00
743.99	109.00
744.31	106.00
744.64	109.00
744.96	112.00
745.28	109.00
745.60	107.00
745.92	107.00
746.25	104.00
746.57	106.00
746.89	105.00
747.21	104.00
747.53	106.00
747.85	110.00
748.17	109.00
748.49	108.00
748.82	109.00
749.14	106.00
749.46	110.00
749.78	110.00
750.10	108.00
750.42	112.00
750.74	107.00
751.06	105.00
751.38	107.00
751.71	108.00
752.03	108.00
752.35	108.00
752.67	105.00
752.99	108.00
753.31	113.00
753.63	109.00
753.95	109.00
754.27	108.00
754.59	109.00
754.91	110.00
755.23	107.00
755.55	107.00
755.87	107.00
756.19	110.00
756.51	107.00
756.83	105.00
757.15	106.00
757.47	108.00
757.79	109.00
758.11	112.00
758.43	110.00
758.75	109.00
759.07	112.00
759.39	111.00
759.71	111.00
760.03	112.00
760.35	109.00
760.67	108.00
760.99	111.00
761.31	108.00
761.63	108.00
761.95	109.00
762.27	110.00
762.59	107.00
762.91	109.00
763.23	111.00
763.54	110.00
763.86	108.00
764.18	110.00
764.50	110.00
764.82	111.00
765.14	108.00
765.46	110.00
765.78	109.00
766.10	106.00
766.42	107.00
766.73	107.00
767.05	106.00
767.37	106.00
767.69	107.00
768.01	115.00
768.33	112.00
768.65	110.00
768.96	114.00
769.28	110.00
769.60	109.00
769.92	108.00
770.24	106.00
770.56	107.00
770.87	108.00
771.19	107.00
771.51	108.00
771.83	110.00
772.15	108.00
772.46	109.00
772.78	110.00
773.10	106.00
773.42	108.00
773.74	108.00
774.05	107.00
774.37	107.00
774.69	107.00
775.01	109.00
775.32	107.00
775.64	108.00
775.96	109.00
776.28	109.00
776.59	109.00
776.91	105.00
777.23	105.00
777.55	106.00
777.86	106.00
778.18	106.00
778.50	110.00
778.81	105.00
779.13	104.00
779.45	104.00
779.76	106.00
780.08	109.00
780.40	108.00
780.72	108.00
781.03	106.00
781.35	105.00
781.67	106.00
781.98	106.00
782.30	107.00
782.62	107.00
782.93	108.00
783.25	106.00
783.56	110.00
783.88	109.00
784.20	109.00
784.51	107.00
784.83	109.00
785.15	108.00
785.46	109.00
785.78	110.00
786.09	109.00
786.41	107.00
786.73	111.00
787.04	110.00
787.36	108.00
787.67	108.00
787.99	107.00
788.31	108.00
788.62	109.00
788.94	106.00
789.25	110.00
789.57	109.00
789.88	108.00
790.20	109.00
790.51	113.00
790.83	111.00
791.15	107.00
791.46	109.00
791.78	111.00
792.09	110.00
792.41	106.00
792.72	106.00
793.04	106.00
793.35	107.00
793.67	106.00
793.98	107.00
794.30	110.00
794.61	110.00
794.93	110.00
795.24	107.00
795.56	106.00
795.87	107.00
796.19	112.00
796.50	109.00
796.81	107.00
797.13	108.00
797.44	103.00
797.76	104.00
798.07	108.00
798.39	108.00
798.70	106.00
799.01	108.00
799.33	110.00
799.64	109.00
799.96	109.00
800.27	108.00
800.59	108.00
800.90	108.00
801.21	108.00
801.53	106.00
801.84	108.00
802.16	111.00
802.47	109.00
802.78	107.00
803.10	105.00
803.41	108.00
803.72	109.00
804.04	108.00
804.35	108.00
804.66	105.00
804.98	103.00
805.29	104.00
805.60	108.00
805.92	107.00
806.23	108.00
806.54	105.00
806.86	103.00
807.17	106.00
807.48	108.00
807.80	107.00
808.11	107.00
808.42	107.00
808.73	106.00
809.05	108.00
809.36	108.00
809.67	108.00
809.99	105.00
810.30	106.00
810.61	107.00
810.92	109.00
811.24	108.00
811.55	109.00
811.86	110.00
812.17	109.00
812.49	110.00
812.80	106.00
813.11	108.00
813.42	110.00
813.73	119.00
814.05	113.00
814.36	110.00
814.67	107.00
814.98	108.00
815.30	108.00
815.61	109.00
815.92	107.00
816.23	106.00
816.54	108.00
816.85	108.00
817.17	113.00
817.48	114.00
817.79	108.00
818.10	107.00
818.41	109.00
818.72	109.00
819.04	107.00
819.35	106.00
819.66	107.00
819.97	108.00
820.28	110.00
820.59	108.00
820.90	108.00
821.21	107.00
821.52	109.00
821.84	110.00
822.15	109.00
822.46	109.00
822.77	107.00
823.08	106.00
823.39	104.00
823.70	106.00
824.01	106.00
824.32	108.00
824.63	106.00
824.94	108.00
825.25	109.00
825.56	113.00
825.88	110.00
826.19	109.00
826.50	106.00
826.81	108.00
827.12	109.00
827.43	110.00
827.74	108.00
828.05	108.00
828.36	105.00
828.67	107.00
828.98	111.00
829.29	118.00
829.60	111.00
829.91	108.00
830.22	107.00
830.53	108.00
830.84	107.00
831.15	106.00
831.46	106.00
831.77	115.00
832.07	109.00
832.38	105.00
832.69	105.00
833.00	105.00
833.31	108.00
833.62	109.00
833.93	119.00
834.24	114.00
834.55	109.00
834.86	107.00
835.17	118.00
835.48	108.00
835.79	106.00
836.10	105.00
836.40	107.00
836.71	108.00
837.02	115.00
837.33	111.00
837.64	108.00
837.95	107.00
838.26	111.00
838.57	109.00
838.87	106.00
839.18	105.00
839.49	117.00
839.80	113.00
840.11	106.00
840.42	105.00
840.72	106.00
841.03	106.00
841.34	106.00
841.65	107.00
841.96	105.00
842.27	104.00
842.57	106.00
842.88	114.00
843.19	109.00
843.50	107.00
843.81	109.00
844.11	108.00
844.42	105.00
844.73	126.00
845.04	114.00
845.34	109.00
845.65	108.00
845.96	109.00
846.27	108.00
846.57	107.00
846.88	105.00
847.19	108.00
847.50	108.00
847.80	108.00
848.11	106.00
848.42	107.00
848.73	106.00
849.03	105.00
849.34	109.00
849.65	105.00
849.95	106.00
850.26	108.00
850.57	108.00
850.87	107.00
851.18	106.00
851.49	109.00
851.80	110.00
852.10	107.00
852.41	108.00
852.72	106.00
853.02	106.00
853.33	109.00
853.63	110.00
853.94	107.00
854.25	106.00
854.55	105.00
854.86	103.00
855.17	104.00
855.47	107.00
855.78	108.00
856.08	112.00
856.39	109.00
856.70	108.00
857.00	107.00
857.31	107.00
857.61	109.00
857.92	107.00
858.23	106.00
858.53	107.00
858.84	105.00
859.14	104.00
859.45	105.00
859.75	106.00
860.06	108.00
860.37	104.00
860.67	107.00
860.98	110.00
861.28	107.00
861.59	111.00
861.89	111.00
862.20	108.00
862.50	105.00
862.81	108.00
863.11	108.00
863.42	109.00
863.72	109.00
864.03	109.00
864.33	99.00
864.64	103.00
864.94	106.00
865.25	106.00
865.55	107.00
865.86	106.00
866.16	108.00
866.47	119.00
866.77	124.00
867.08	111.00
867.38	107.00
867.68	106.00
867.99	111.00
868.29	109.00
868.60	108.00
868.90	121.00
869.21	111.00
869.51	107.00
869.81	107.00
870.12	107.00
870.42	106.00
870.73	118.00
871.03	114.00
871.33	108.00
871.64	106.00
871.94	108.00
872.25	108.00
872.55	110.00
872.85	108.00
873.16	108.00
873.46	109.00
873.76	108.00
874.07	107.00
874.37	105.00
874.67	105.00
874.98	106.00
875.28	106.00
875.58	105.00
875.89	106.00
876.19	109.00
876.49	110.00
876.80	109.00
877.10	117.00
877.40	111.00
877.71	109.00
878.01	108.00
878.31	107.00
878.61	107.00
878.92	107.00
879.22	107.00
879.52	106.00
879.83	100.00
880.13	104.00
880.43	109.00
880.73	107.00
881.04	108.00
881.34	107.00
881.64	108.00
881.94	107.00
882.24	107.00
882.55	107.00
882.85	109.00
883.15	107.00
883.45	116.00
883.76	111.00
884.06	108.00
884.36	107.00
884.66	106.00
884.96	105.00
>>>>>End Processed Spectral Data<<<<<
